Ballot file contains 5 candidates and 2302 ballots.
No candidates have withdrawn.
Ballot file contains 2302 non-empty ballots.

Counting votes for Mathematics Stack Exchange Moderator Election 2020 using Meek STV.
5 candidates running for 1 seat.

 R|heropup           |TheSimpliFire     |Xander Henderson  |Paramanand Singh  
  |------------------+------------------+------------------+------------------
  |Matt Samuel       |Exhausted         |Surplus           |Threshold         
==============================================================================
 1|        204.000000|        373.000000|        604.000000|        649.000000
  |        472.000000|          0.000000|          0.000000|       1151.000001
  |---------------------------------------------------------------------------
  | Count of first choices.
==============================================================================
 2|                  |        404.000000|        648.000000|        702.000000
  |        527.000000|         21.000000|          0.000000|       1140.500001
  |---------------------------------------------------------------------------
  | Count after eliminating heropup and transferring votes. All losing
  | candidates are eliminated.
==============================================================================
 3|                  |                  |        838.000000|        804.000000
  |        578.000000|         82.000000|          0.000000|       1110.000001
  |---------------------------------------------------------------------------
  | Count after eliminating TheSimpliFire and transferring votes. All losing
  | candidates are eliminated.
==============================================================================
 4|                  |                  |       1026.000000|       1010.000000
  |                  |        266.000000|          7.999999|       1018.000001
  |---------------------------------------------------------------------------
  | Count after eliminating Matt Samuel and transferring votes. All losing
  | candidates are eliminated. Candidate Xander Henderson has reached the
  | threshold and is elected.

Winner is Xander Henderson.


5 1
1 1 2 0
1 1 2 0
1 1 2 0
1 1 2 0
1 1 2 0
1 1 2 0
1 1 2 0
1 1 2 0
1 1 2 0
1 1 2 0
1 1 2 0
1 1 3 0
1 1 3 0
1 1 3 0
1 1 3 0
1 1 3 0
1 1 3 0
1 1 3 0
1 1 3 0
1 1 3 0
1 1 3 0
1 1 3 0
1 1 3 0
1 1 3 0
1 1 3 0
1 1 3 0
1 1 2 4 0
1 1 2 4 0
1 1 2 4 0
1 1 2 4 0
1 1 2 4 0
1 1 2 4 0
1 1 2 4 0
1 1 2 4 0
1 1 2 4 0
1 1 2 4 0
1 1 2 4 0
1 4 0
1 4 0
1 4 0
1 4 0
1 4 0
1 4 0
1 4 0
1 4 0
1 4 0
1 4 0
1 4 0
1 4 0
1 4 0
1 4 0
1 4 0
1 4 0
1 4 0
1 4 0
1 4 0
1 4 0
1 4 0
1 4 0
1 4 0
1 4 0
1 4 0
1 4 0
1 4 0
1 4 0
1 4 0
1 4 0
1 4 0
1 4 0
1 4 0
1 4 0
1 4 0
1 4 0
1 4 0
1 4 0
1 4 0
1 4 0
1 4 0
1 4 0
1 4 0
1 4 0
1 4 0
1 4 0
1 4 0
1 4 0
1 4 0
1 4 0
1 4 0
1 4 0
1 4 0
1 4 0
1 4 0
1 4 0
1 4 0
1 4 0
1 4 0
1 4 0
1 1 3 4 0
1 1 3 4 0
1 1 3 4 0
1 1 3 4 0
1 1 3 4 0
1 1 3 4 0
1 1 3 4 0
1 1 0
1 1 0
1 1 0
1 1 0
1 1 0
1 1 0
1 1 0
1 1 0
1 1 0
1 1 0
1 1 0
1 1 0
1 1 0
1 1 0
1 1 0
1 1 0
1 1 0
1 1 0
1 1 0
1 1 0
1 1 0
1 1 3 5 0
1 1 3 5 0
1 1 3 5 0
1 1 3 5 0
1 1 3 5 0
1 1 3 5 0
1 1 3 5 0
1 1 3 5 0
1 1 3 5 0
1 1 3 5 0
1 1 3 5 0
1 1 3 5 0
1 1 3 5 0
1 1 3 5 0
1 1 3 5 0
1 1 2 5 0
1 1 2 5 0
1 1 2 5 0
1 1 2 5 0
1 5 0
1 5 0
1 5 0
1 5 0
1 5 0
1 5 0
1 5 0
1 5 0
1 5 0
1 5 0
1 5 0
1 5 0
1 5 0
1 5 0
1 5 0
1 5 0
1 5 0
1 5 0
1 5 0
1 5 0
1 5 0
1 5 0
1 5 0
1 5 0
1 5 0
1 5 0
1 5 0
1 5 0
1 5 0
1 5 0
1 5 0
1 5 0
1 5 0
1 5 0
1 5 0
1 5 0
1 5 0
1 5 0
1 5 0
1 5 0
1 5 0
1 5 0
1 5 0
1 5 0
1 5 0
1 5 0
1 5 0
1 5 0
1 5 0
1 5 0
1 5 0
1 5 0
1 5 0
1 5 0
1 5 0
1 5 0
1 5 0
1 4 3 0
1 4 3 0
1 4 3 0
1 4 3 0
1 4 3 0
1 4 3 0
1 4 3 0
1 4 3 0
1 4 3 0
1 4 3 0
1 4 3 0
1 4 3 0
1 4 3 0
1 4 3 0
1 4 3 0
1 4 3 0
1 4 3 0
1 4 3 0
1 4 3 0
1 4 3 0
1 4 3 0
1 4 3 0
1 4 3 0
1 4 3 0
1 4 3 0
1 4 3 0
1 4 3 0
1 4 3 0
1 4 3 0
1 4 3 0
1 4 3 0
1 4 3 0
1 4 3 0
1 4 3 0
1 4 3 0
1 4 3 0
1 4 3 0
1 4 3 0
1 4 3 0
1 4 3 0
1 4 3 0
1 4 3 0
1 4 3 0
1 4 3 0
1 4 3 0
1 4 3 0
1 4 3 0
1 4 3 0
1 4 3 0
1 4 3 0
1 4 3 0
1 4 3 0
1 4 3 0
1 4 3 0
1 4 3 0
1 4 3 0
1 4 3 0
1 4 3 0
1 4 3 0
1 4 3 0
1 4 3 0
1 4 3 0
1 4 3 0
1 4 3 0
1 4 3 0
1 4 3 0
1 4 3 0
1 4 3 0
1 4 3 0
1 4 3 0
1 4 3 0
1 4 3 0
1 4 3 0
1 4 3 0
1 4 3 0
1 4 3 0
1 4 3 0
1 4 3 0
1 4 3 0
1 4 3 0
1 4 2 0
1 4 2 0
1 4 2 0
1 4 2 0
1 4 2 0
1 4 2 0
1 4 2 0
1 4 2 0
1 4 2 0
1 4 2 0
1 4 2 0
1 4 2 0
1 4 2 0
1 4 2 0
1 4 2 0
1 4 2 0
1 4 2 0
1 4 2 0
1 4 2 0
1 4 2 0
1 4 2 0
1 4 2 0
1 4 2 0
1 4 2 0
1 4 2 0
1 4 2 0
1 4 2 0
1 4 2 0
1 4 2 0
1 4 2 0
1 4 2 0
1 4 2 0
1 4 2 0
1 4 2 0
1 4 2 0
1 4 2 0
1 4 2 0
1 4 2 0
1 4 2 0
1 4 2 0
1 4 2 0
1 4 2 0
1 4 2 0
1 4 2 0
1 4 2 0
1 4 2 0
1 4 2 0
1 4 2 0
1 4 2 0
1 4 2 0
1 4 2 0
1 4 2 0
1 4 2 0
1 4 2 0
1 4 2 0
1 4 2 0
1 4 2 0
1 4 2 0
1 4 2 0
1 4 2 0
1 4 2 0
1 4 2 0
1 4 2 0
1 4 2 0
1 4 2 0
1 4 2 0
1 4 2 0
1 4 2 0
1 4 2 0
1 4 2 0
1 4 2 0
1 4 1 0
1 4 1 0
1 4 1 0
1 4 1 0
1 4 1 0
1 4 1 0
1 4 1 0
1 4 1 0
1 4 1 0
1 4 1 0
1 4 1 0
1 4 1 0
1 4 1 0
1 4 1 0
1 4 1 0
1 4 1 0
1 4 1 0
1 4 1 0
1 4 1 0
1 4 1 0
1 4 1 0
1 4 1 0
1 4 1 0
1 4 1 0
1 4 1 0
1 4 1 0
1 4 1 0
1 4 1 0
1 4 1 0
1 4 1 0
1 4 1 0
1 4 1 0
1 4 1 0
1 4 1 0
1 4 1 0
1 1 5 0
1 1 5 0
1 1 5 0
1 1 5 0
1 1 5 0
1 1 5 0
1 1 5 0
1 1 5 0
1 1 5 0
1 1 5 0
1 1 5 0
1 1 5 0
1 1 5 0
1 1 5 0
1 1 5 0
1 1 5 0
1 1 5 0
1 1 4 0
1 1 4 0
1 1 4 0
1 1 4 0
1 1 4 0
1 1 4 0
1 1 4 0
1 1 4 0
1 1 4 0
1 1 4 0
1 1 4 0
1 1 4 0
1 1 4 0
1 1 4 0
1 4 5 0
1 4 5 0
1 4 5 0
1 4 5 0
1 4 5 0
1 4 5 0
1 4 5 0
1 4 5 0
1 4 5 0
1 4 5 0
1 4 5 0
1 4 5 0
1 4 5 0
1 4 5 0
1 4 5 0
1 4 5 0
1 4 5 0
1 4 5 0
1 4 5 0
1 4 5 0
1 4 5 0
1 4 5 0
1 4 5 0
1 4 5 0
1 4 5 0
1 4 5 0
1 4 5 0
1 4 5 0
1 4 5 0
1 4 5 0
1 4 5 0
1 4 5 0
1 4 5 0
1 4 5 0
1 4 5 0
1 4 5 0
1 4 5 0
1 4 5 0
1 4 5 0
1 4 5 0
1 4 5 0
1 4 5 0
1 4 5 0
1 4 5 0
1 4 5 0
1 4 5 0
1 4 5 0
1 4 5 0
1 4 5 0
1 4 5 0
1 4 5 0
1 4 5 0
1 4 5 0
1 4 5 0
1 4 5 0
1 4 5 0
1 4 5 0
1 4 5 0
1 4 5 0
1 4 5 0
1 4 5 0
1 4 5 0
1 4 5 0
1 4 5 0
1 4 5 0
1 4 5 0
1 4 5 0
1 4 5 0
1 4 5 0
1 4 5 0
1 4 5 0
1 4 5 0
1 4 5 0
1 4 5 0
1 4 5 0
1 4 5 0
1 4 5 0
1 4 5 0
1 4 5 0
1 4 5 0
1 4 5 0
1 4 5 0
1 4 5 0
1 4 5 0
1 4 5 0
1 4 5 0
1 4 5 0
1 4 5 0
1 4 5 0
1 4 5 0
1 4 5 0
1 4 5 0
1 3 0
1 3 0
1 3 0
1 3 0
1 3 0
1 3 0
1 3 0
1 3 0
1 3 0
1 3 0
1 3 0
1 3 0
1 3 0
1 3 0
1 3 0
1 3 0
1 3 0
1 3 0
1 3 0
1 3 0
1 3 0
1 3 0
1 3 0
1 3 0
1 3 0
1 3 0
1 3 0
1 3 0
1 3 0
1 3 0
1 3 0
1 3 0
1 3 0
1 3 0
1 3 0
1 3 0
1 3 0
1 3 0
1 3 0
1 3 0
1 3 0
1 2 0
1 2 0
1 2 0
1 2 0
1 2 0
1 2 0
1 2 0
1 2 0
1 2 0
1 2 0
1 2 0
1 2 0
1 2 0
1 2 0
1 2 0
1 2 0
1 2 0
1 2 0
1 2 0
1 2 0
1 2 0
1 2 0
1 2 0
1 2 0
1 2 0
1 2 0
1 2 0
1 2 0
1 2 0
1 2 0
1 2 0
1 2 0
1 2 0
1 2 0
1 1 2 3 0
1 1 2 3 0
1 1 2 3 0
1 1 2 3 0
1 1 2 3 0
1 1 3 2 0
1 1 3 2 0
1 1 3 2 0
1 1 3 2 0
1 1 3 2 0
1 1 3 2 0
1 1 3 2 0
1 4 3 2 0
1 4 3 2 0
1 4 3 2 0
1 4 3 2 0
1 4 3 2 0
1 4 3 2 0
1 4 3 2 0
1 4 3 2 0
1 4 3 2 0
1 4 3 2 0
1 4 3 2 0
1 4 3 2 0
1 4 3 2 0
1 4 3 2 0
1 4 3 2 0
1 4 3 2 0
1 4 3 2 0
1 4 3 2 0
1 4 3 2 0
1 4 3 2 0
1 4 3 2 0
1 4 3 2 0
1 4 3 2 0
1 4 3 2 0
1 4 3 2 0
1 4 3 2 0
1 4 3 2 0
1 4 3 2 0
1 4 3 2 0
1 4 3 2 0
1 4 3 2 0
1 4 3 2 0
1 4 3 2 0
1 4 3 2 0
1 4 3 2 0
1 4 3 2 0
1 4 3 2 0
1 4 3 2 0
1 4 3 2 0
1 4 3 2 0
1 4 3 2 0
1 4 3 2 0
1 4 3 2 0
1 4 3 2 0
1 4 3 2 0
1 4 3 2 0
1 4 3 2 0
1 4 3 2 0
1 4 3 2 0
1 4 3 2 0
1 5 4 0
1 5 4 0
1 5 4 0
1 5 4 0
1 5 4 0
1 5 4 0
1 5 4 0
1 5 4 0
1 5 4 0
1 5 4 0
1 5 4 0
1 5 4 0
1 5 4 0
1 5 4 0
1 5 4 0
1 5 4 0
1 5 4 0
1 5 4 0
1 5 4 0
1 5 4 0
1 5 4 0
1 5 4 0
1 5 4 0
1 5 4 0
1 5 4 0
1 5 4 0
1 5 4 0
1 5 4 0
1 5 4 0
1 5 4 0
1 5 4 0
1 5 4 0
1 5 4 0
1 5 4 0
1 5 4 0
1 5 4 0
1 5 4 0
1 5 4 0
1 5 4 0
1 5 4 0
1 5 4 0
1 5 4 0
1 5 4 0
1 5 4 0
1 5 4 0
1 5 4 0
1 5 4 0
1 5 4 0
1 5 4 0
1 5 4 0
1 5 4 0
1 5 4 0
1 5 4 0
1 5 4 0
1 5 4 0
1 5 4 0
1 5 4 0
1 5 4 0
1 5 4 0
1 5 4 0
1 5 4 0
1 5 4 0
1 5 4 0
1 5 4 0
1 5 4 0
1 5 4 0
1 5 4 0
1 5 4 0
1 4 2 3 0
1 4 2 3 0
1 4 2 3 0
1 4 2 3 0
1 4 2 3 0
1 4 2 3 0
1 4 2 3 0
1 4 2 3 0
1 4 2 3 0
1 4 2 3 0
1 4 2 3 0
1 4 2 3 0
1 4 2 3 0
1 4 2 3 0
1 4 2 3 0
1 4 2 3 0
1 4 2 3 0
1 4 2 3 0
1 4 2 3 0
1 4 2 3 0
1 4 2 3 0
1 4 2 3 0
1 4 2 3 0
1 4 2 3 0
1 4 2 3 0
1 4 2 3 0
1 4 2 3 0
1 4 2 3 0
1 4 2 3 0
1 5 1 0
1 5 1 0
1 5 1 0
1 5 1 0
1 5 1 0
1 5 1 0
1 5 1 0
1 5 1 0
1 5 1 0
1 5 1 0
1 5 1 0
1 5 1 0
1 5 1 0
1 5 1 0
1 5 1 0
1 5 1 0
1 5 1 0
1 5 1 0
1 5 1 0
1 5 1 0
1 5 2 0
1 5 2 0
1 5 2 0
1 5 2 0
1 5 2 0
1 5 2 0
1 5 2 0
1 5 2 0
1 5 2 0
1 5 2 0
1 5 2 0
1 5 2 0
1 5 2 0
1 5 2 0
1 5 2 0
1 5 2 0
1 5 2 0
1 5 2 0
1 5 2 0
1 5 2 0
1 5 2 0
1 5 2 0
1 5 2 0
1 5 2 0
1 5 2 0
1 5 2 0
1 5 2 0
1 5 2 0
1 5 2 0
1 5 3 0
1 5 3 0
1 5 3 0
1 5 3 0
1 5 3 0
1 5 3 0
1 5 3 0
1 5 3 0
1 5 3 0
1 5 3 0
1 5 3 0
1 5 3 0
1 5 3 0
1 5 3 0
1 5 3 0
1 5 3 0
1 5 3 0
1 5 3 0
1 5 3 0
1 5 3 0
1 5 3 0
1 5 3 0
1 5 3 0
1 5 3 0
1 5 3 0
1 5 3 0
1 5 3 0
1 5 3 0
1 5 3 0
1 5 3 0
1 5 3 0
1 5 3 0
1 5 3 0
1 5 3 0
1 5 3 0
1 5 3 0
1 5 3 0
1 5 3 0
1 5 3 0
1 5 3 0
1 4 2 1 0
1 4 2 1 0
1 4 2 1 0
1 4 2 1 0
1 4 2 1 0
1 4 2 1 0
1 4 2 1 0
1 4 2 1 0
1 4 2 1 0
1 4 3 1 0
1 4 3 1 0
1 4 3 1 0
1 4 3 1 0
1 4 3 1 0
1 4 3 1 0
1 4 3 1 0
1 4 3 1 0
1 4 3 1 0
1 4 3 1 0
1 4 3 1 0
1 4 3 1 0
1 4 3 1 0
1 4 3 1 0
1 4 3 1 0
1 4 3 1 0
1 4 3 1 0
1 4 3 1 0
1 4 3 1 0
1 4 3 1 0
1 4 2 5 0
1 4 2 5 0
1 4 2 5 0
1 4 2 5 0
1 4 2 5 0
1 4 2 5 0
1 4 2 5 0
1 4 2 5 0
1 4 2 5 0
1 4 2 5 0
1 4 2 5 0
1 4 2 5 0
1 4 2 5 0
1 4 2 5 0
1 4 2 5 0
1 4 2 5 0
1 4 2 5 0
1 4 2 5 0
1 4 2 5 0
1 4 2 5 0
1 4 2 5 0
1 4 3 5 0
1 4 3 5 0
1 4 3 5 0
1 4 3 5 0
1 4 3 5 0
1 4 3 5 0
1 4 3 5 0
1 4 3 5 0
1 4 3 5 0
1 4 3 5 0
1 4 3 5 0
1 4 3 5 0
1 4 3 5 0
1 4 3 5 0
1 4 3 5 0
1 4 3 5 0
1 4 3 5 0
1 4 3 5 0
1 4 3 5 0
1 4 3 5 0
1 4 3 5 0
1 4 3 5 0
1 4 3 5 0
1 1 5 3 0
1 1 5 3 0
1 1 5 3 0
1 1 5 3 0
1 1 5 3 0
1 1 5 3 0
1 1 5 3 0
1 1 5 3 0
1 1 5 3 0
1 1 5 3 0
1 1 5 3 0
1 1 5 3 0
1 1 5 3 0
1 1 5 3 0
1 1 5 3 0
1 1 5 2 0
1 1 5 2 0
1 1 5 2 0
1 1 5 2 0
1 1 5 2 0
1 1 5 2 0
1 4 1 3 0
1 4 1 3 0
1 4 1 3 0
1 4 1 3 0
1 4 1 3 0
1 4 1 3 0
1 4 1 3 0
1 4 1 3 0
1 4 1 3 0
1 4 1 3 0
1 4 1 3 0
1 4 1 3 0
1 4 1 3 0
1 4 1 3 0
1 4 1 2 0
1 4 1 2 0
1 4 1 2 0
1 4 1 2 0
1 4 1 2 0
1 4 1 2 0
1 4 1 2 0
1 4 1 2 0
1 4 1 2 0
1 4 1 2 0
1 4 1 2 0
1 4 1 2 0
1 4 1 5 0
1 4 1 5 0
1 4 1 5 0
1 4 1 5 0
1 4 1 5 0
1 4 1 5 0
1 4 1 5 0
1 4 1 5 0
1 4 1 5 0
1 4 1 5 0
1 4 1 5 0
1 4 1 5 0
1 4 1 5 0
1 4 1 5 0
1 4 1 5 0
1 4 1 5 0
1 4 1 5 0
1 4 1 5 0
1 4 1 5 0
1 4 1 5 0
1 4 1 5 0
1 4 1 5 0
1 4 1 5 0
1 4 1 5 0
1 4 1 5 0
1 4 1 5 0
1 4 1 5 0
1 4 1 5 0
1 4 1 5 0
1 4 1 5 0
1 4 1 5 0
1 4 1 5 0
1 4 1 5 0
1 4 1 5 0
1 4 1 5 0
1 1 5 4 0
1 1 5 4 0
1 1 5 4 0
1 1 5 4 0
1 1 5 4 0
1 1 5 4 0
1 1 5 4 0
1 1 5 4 0
1 1 5 4 0
1 1 5 4 0
1 1 5 4 0
1 1 5 4 0
1 1 5 4 0
1 1 5 4 0
1 1 5 4 0
1 1 5 4 0
1 1 5 4 0
1 1 4 5 0
1 1 4 5 0
1 1 4 5 0
1 1 4 5 0
1 1 4 5 0
1 1 4 5 0
1 1 4 5 0
1 1 4 5 0
1 1 4 5 0
1 1 4 5 0
1 1 4 5 0
1 1 4 5 0
1 1 4 5 0
1 1 4 5 0
1 1 4 5 0
1 1 4 5 0
1 1 4 5 0
1 1 4 5 0
1 1 4 5 0
1 1 4 5 0
1 1 4 5 0
1 4 5 1 0
1 4 5 1 0
1 4 5 1 0
1 4 5 1 0
1 4 5 1 0
1 4 5 1 0
1 4 5 1 0
1 4 5 1 0
1 4 5 1 0
1 4 5 1 0
1 4 5 1 0
1 4 5 1 0
1 4 5 1 0
1 4 5 1 0
1 4 5 1 0
1 4 5 1 0
1 4 5 1 0
1 4 5 1 0
1 4 5 1 0
1 4 5 1 0
1 4 5 1 0
1 4 5 1 0
1 4 5 1 0
1 4 5 1 0
1 4 5 1 0
1 4 5 1 0
1 4 5 1 0
1 4 5 1 0
1 4 5 1 0
1 4 5 1 0
1 4 5 1 0
1 4 5 1 0
1 4 5 1 0
1 4 5 1 0
1 4 5 1 0
1 3 2 0
1 3 2 0
1 3 2 0
1 3 2 0
1 3 2 0
1 3 2 0
1 3 2 0
1 3 2 0
1 3 2 0
1 3 2 0
1 3 2 0
1 3 2 0
1 3 2 0
1 3 2 0
1 3 2 0
1 3 2 0
1 3 2 0
1 3 2 0
1 3 2 0
1 3 2 0
1 3 2 0
1 3 2 0
1 3 2 0
1 3 2 0
1 3 2 0
1 3 2 0
1 3 2 0
1 3 2 0
1 3 2 0
1 3 2 0
1 3 2 0
1 3 2 0
1 3 2 0
1 3 2 0
1 3 2 0
1 3 2 0
1 3 2 0
1 3 2 0
1 3 2 0
1 3 2 0
1 3 2 0
1 3 2 0
1 3 2 0
1 3 2 0
1 3 2 0
1 3 2 0
1 3 2 0
1 3 2 0
1 3 2 0
1 3 2 0
1 3 2 0
1 3 2 0
1 3 2 0
1 3 2 0
1 3 2 0
1 3 2 0
1 3 2 0
1 3 2 0
1 3 2 0
1 3 2 0
1 3 2 0
1 3 2 0
1 3 2 0
1 2 3 0
1 2 3 0
1 2 3 0
1 2 3 0
1 2 3 0
1 2 3 0
1 2 3 0
1 2 3 0
1 2 3 0
1 2 3 0
1 2 3 0
1 2 3 0
1 2 3 0
1 2 3 0
1 2 3 0
1 2 3 0
1 2 3 0
1 2 3 0
1 2 3 0
1 2 3 0
1 2 3 0
1 2 3 0
1 2 3 0
1 2 3 0
1 2 3 0
1 2 3 0
1 2 3 0
1 2 3 0
1 2 3 0
1 2 3 0
1 2 3 0
1 2 3 0
1 2 3 0
1 2 3 0
1 2 3 0
1 2 3 0
1 2 3 0
1 2 3 0
1 2 3 0
1 2 3 0
1 2 3 0
1 2 3 0
1 2 3 0
1 2 3 0
1 2 1 0
1 2 1 0
1 2 1 0
1 2 1 0
1 2 1 0
1 2 1 0
1 2 1 0
1 2 1 0
1 2 1 0
1 2 1 0
1 2 1 0
1 2 1 0
1 2 1 0
1 2 1 0
1 2 1 0
1 2 1 0
1 3 1 0
1 3 1 0
1 3 1 0
1 3 1 0
1 3 1 0
1 3 1 0
1 3 1 0
1 3 1 0
1 3 1 0
1 3 1 0
1 3 1 0
1 3 1 0
1 3 1 0
1 3 1 0
1 3 1 0
1 3 1 0
1 3 1 0
1 3 1 0
1 3 1 0
1 3 1 0
1 3 1 0
1 3 1 0
1 3 1 0
1 3 1 0
1 3 1 0
1 3 1 0
1 3 1 0
1 3 4 0
1 3 4 0
1 3 4 0
1 3 4 0
1 3 4 0
1 3 4 0
1 3 4 0
1 3 4 0
1 3 4 0
1 3 4 0
1 3 4 0
1 3 4 0
1 3 4 0
1 3 4 0
1 3 4 0
1 3 4 0
1 3 4 0
1 3 4 0
1 3 4 0
1 3 4 0
1 3 4 0
1 3 4 0
1 3 4 0
1 3 4 0
1 3 4 0
1 3 4 0
1 3 4 0
1 3 4 0
1 3 4 0
1 3 4 0
1 3 4 0
1 3 4 0
1 3 4 0
1 3 4 0
1 3 4 0
1 3 4 0
1 3 4 0
1 3 4 0
1 3 4 0
1 3 4 0
1 3 4 0
1 3 4 0
1 3 4 0
1 3 4 0
1 4 5 3 0
1 4 5 3 0
1 4 5 3 0
1 4 5 3 0
1 4 5 3 0
1 4 5 3 0
1 4 5 3 0
1 4 5 3 0
1 4 5 3 0
1 4 5 3 0
1 4 5 3 0
1 4 5 3 0
1 4 5 3 0
1 4 5 3 0
1 4 5 3 0
1 4 5 3 0
1 4 5 3 0
1 4 5 3 0
1 4 5 3 0
1 4 5 3 0
1 4 5 3 0
1 4 5 3 0
1 4 5 3 0
1 4 5 3 0
1 4 5 3 0
1 4 5 3 0
1 4 5 3 0
1 4 5 3 0
1 4 5 3 0
1 4 5 3 0
1 4 5 3 0
1 4 5 3 0
1 4 5 3 0
1 4 5 3 0
1 4 5 2 0
1 4 5 2 0
1 4 5 2 0
1 4 5 2 0
1 4 5 2 0
1 4 5 2 0
1 4 5 2 0
1 4 5 2 0
1 4 5 2 0
1 4 5 2 0
1 4 5 2 0
1 4 5 2 0
1 4 5 2 0
1 4 5 2 0
1 4 5 2 0
1 4 5 2 0
1 4 5 2 0
1 4 5 2 0
1 4 5 2 0
1 4 5 2 0
1 4 5 2 0
1 4 5 2 0
1 4 5 2 0
1 4 5 2 0
1 4 5 2 0
1 4 5 2 0
1 4 5 2 0
1 4 5 2 0
1 4 5 2 0
1 2 4 0
1 2 4 0
1 2 4 0
1 2 4 0
1 2 4 0
1 2 4 0
1 2 4 0
1 2 4 0
1 2 4 0
1 2 4 0
1 2 4 0
1 2 4 0
1 2 4 0
1 2 4 0
1 2 4 0
1 2 4 0
1 2 4 0
1 2 4 0
1 2 4 0
1 2 4 0
1 2 4 0
1 2 4 0
1 2 4 0
1 2 4 0
1 2 4 0
1 2 4 0
1 2 4 0
1 2 4 0
1 2 4 0
1 2 4 0
1 2 4 0
1 2 4 0
1 2 4 0
1 2 4 0
1 2 4 0
1 2 5 0
1 2 5 0
1 2 5 0
1 2 5 0
1 2 5 0
1 2 5 0
1 2 5 0
1 2 5 0
1 2 5 0
1 2 5 0
1 2 5 0
1 2 5 0
1 2 5 0
1 2 5 0
1 2 5 0
1 2 5 0
1 2 5 0
1 3 5 0
1 3 5 0
1 3 5 0
1 3 5 0
1 3 5 0
1 3 5 0
1 3 5 0
1 3 5 0
1 3 5 0
1 3 5 0
1 3 5 0
1 3 5 0
1 3 5 0
1 3 5 0
1 3 5 0
1 3 5 0
1 3 5 0
1 3 5 0
1 3 5 0
1 3 5 0
1 3 5 0
1 3 5 0
1 3 5 0
1 3 5 0
1 3 5 0
1 3 5 0
1 3 5 0
1 3 5 0
1 3 5 0
1 3 5 0
1 3 5 0
1 1 4 2 0
1 1 4 2 0
1 1 4 2 0
1 1 4 2 0
1 1 4 2 0
1 1 4 2 0
1 1 4 2 0
1 1 4 2 0
1 1 4 3 0
1 1 4 3 0
1 1 4 3 0
1 1 4 3 0
1 1 4 3 0
1 1 4 3 0
1 1 4 3 0
1 1 4 3 0
1 1 4 3 0
1 1 4 3 0
1 5 4 1 0
1 5 4 1 0
1 5 4 1 0
1 5 4 1 0
1 5 4 1 0
1 5 4 1 0
1 5 4 1 0
1 5 4 1 0
1 5 4 1 0
1 5 4 1 0
1 5 4 1 0
1 5 4 1 0
1 5 4 1 0
1 5 4 1 0
1 5 4 1 0
1 5 4 1 0
1 5 4 1 0
1 5 4 1 0
1 5 4 1 0
1 5 4 1 0
1 5 4 1 0
1 5 4 1 0
1 5 4 1 0
1 5 4 1 0
1 5 4 1 0
1 5 4 1 0
1 5 4 1 0
1 5 1 4 0
1 5 1 4 0
1 5 1 4 0
1 5 1 4 0
1 5 1 4 0
1 5 1 4 0
1 5 1 4 0
1 5 1 4 0
1 5 1 4 0
1 5 1 4 0
1 5 1 4 0
1 5 1 4 0
1 5 1 4 0
1 5 1 4 0
1 5 1 4 0
1 5 1 4 0
1 5 1 4 0
1 5 1 4 0
1 5 1 4 0
1 5 1 4 0
1 5 1 4 0
1 5 1 3 0
1 5 1 3 0
1 5 1 3 0
1 5 1 3 0
1 5 1 3 0
1 5 1 3 0
1 5 1 3 0
1 5 1 3 0
1 5 1 3 0
1 5 1 3 0
1 5 1 3 0
1 5 1 3 0
1 5 1 3 0
1 5 1 3 0
1 5 1 3 0
1 5 1 3 0
1 5 1 2 0
1 5 1 2 0
1 5 1 2 0
1 5 1 2 0
1 5 1 2 0
1 5 1 2 0
1 5 1 2 0
1 5 1 2 0
1 5 1 2 0
1 5 1 2 0
1 5 1 2 0
1 5 1 2 0
1 5 1 2 0
1 5 4 2 0
1 5 4 2 0
1 5 4 2 0
1 5 4 2 0
1 5 4 2 0
1 5 4 2 0
1 5 4 2 0
1 5 4 2 0
1 5 4 2 0
1 5 4 2 0
1 5 4 2 0
1 5 4 2 0
1 5 4 2 0
1 5 4 2 0
1 5 4 2 0
1 5 4 2 0
1 5 4 2 0
1 5 4 2 0
1 5 4 2 0
1 5 4 2 0
1 5 4 2 0
1 5 4 2 0
1 5 4 2 0
1 5 4 2 0
1 5 4 3 0
1 5 4 3 0
1 5 4 3 0
1 5 4 3 0
1 5 4 3 0
1 5 4 3 0
1 5 4 3 0
1 5 4 3 0
1 5 4 3 0
1 5 4 3 0
1 5 4 3 0
1 5 4 3 0
1 5 4 3 0
1 5 4 3 0
1 5 4 3 0
1 5 4 3 0
1 5 4 3 0
1 5 4 3 0
1 5 4 3 0
1 5 4 3 0
1 5 4 3 0
1 5 4 3 0
1 5 4 3 0
1 5 4 3 0
1 5 4 3 0
1 5 4 3 0
1 5 4 3 0
1 5 2 4 0
1 5 2 4 0
1 5 2 4 0
1 5 2 4 0
1 5 2 4 0
1 5 2 4 0
1 5 2 4 0
1 5 2 4 0
1 5 2 4 0
1 5 2 4 0
1 5 2 4 0
1 5 2 4 0
1 5 2 4 0
1 5 3 4 0
1 5 3 4 0
1 5 3 4 0
1 5 3 4 0
1 5 3 4 0
1 5 3 4 0
1 5 3 4 0
1 5 3 4 0
1 5 3 4 0
1 5 3 4 0
1 5 3 4 0
1 5 3 4 0
1 5 3 4 0
1 5 3 4 0
1 5 3 4 0
1 5 3 4 0
1 5 3 4 0
1 5 3 4 0
1 5 3 4 0
1 5 3 4 0
1 5 3 4 0
1 5 3 4 0
1 5 3 4 0
1 5 3 4 0
1 5 3 4 0
1 5 3 4 0
1 5 3 4 0
1 5 3 4 0
1 5 3 4 0
1 5 3 4 0
1 5 3 4 0
1 5 3 4 0
1 5 3 4 0
1 5 3 4 0
1 5 3 4 0
1 5 3 4 0
1 5 3 4 0
1 5 3 4 0
1 5 3 1 0
1 5 3 1 0
1 5 3 1 0
1 5 3 1 0
1 5 3 1 0
1 5 3 1 0
1 5 3 1 0
1 5 3 1 0
1 5 3 1 0
1 5 3 1 0
1 5 3 1 0
1 5 3 1 0
1 5 3 1 0
1 5 3 1 0
1 5 3 1 0
1 5 3 1 0
1 5 3 1 0
1 5 3 1 0
1 5 3 1 0
1 5 3 1 0
1 5 3 1 0
1 5 3 1 0
1 5 3 1 0
1 5 3 1 0
1 5 3 1 0
1 5 3 1 0
1 5 2 1 0
1 5 2 1 0
1 5 2 1 0
1 5 2 1 0
1 5 2 1 0
1 5 2 1 0
1 5 2 1 0
1 5 2 1 0
1 5 2 1 0
1 5 2 1 0
1 5 2 1 0
1 5 2 3 0
1 5 2 3 0
1 5 2 3 0
1 5 2 3 0
1 5 2 3 0
1 5 2 3 0
1 5 2 3 0
1 5 2 3 0
1 5 2 3 0
1 5 2 3 0
1 5 3 2 0
1 5 3 2 0
1 5 3 2 0
1 5 3 2 0
1 5 3 2 0
1 5 3 2 0
1 5 3 2 0
1 5 3 2 0
1 5 3 2 0
1 5 3 2 0
1 5 3 2 0
1 5 3 2 0
1 5 3 2 0
1 5 3 2 0
1 5 3 2 0
1 5 3 2 0
1 5 3 2 0
1 5 3 2 0
1 5 3 2 0
1 5 3 2 0
1 5 3 2 0
1 5 3 2 0
1 5 3 2 0
1 5 3 2 0
1 5 3 2 0
1 5 3 2 0
1 5 3 2 0
1 5 3 2 0
1 5 3 2 0
1 5 3 2 0
1 5 3 2 0
1 5 3 2 0
1 3 2 5 0
1 3 2 5 0
1 3 2 5 0
1 3 2 5 0
1 3 2 5 0
1 3 2 5 0
1 3 2 5 0
1 3 2 5 0
1 3 2 5 0
1 3 2 5 0
1 3 2 5 0
1 3 2 5 0
1 3 2 5 0
1 3 2 5 0
1 3 2 5 0
1 3 2 5 0
1 3 2 5 0
1 3 2 5 0
1 3 2 5 0
1 3 2 5 0
1 3 2 5 0
1 3 2 5 0
1 3 2 5 0
1 3 2 5 0
1 3 2 5 0
1 3 2 5 0
1 3 2 5 0
1 3 2 5 0
1 3 2 5 0
1 3 2 5 0
1 3 2 5 0
1 3 2 5 0
1 3 2 5 0
1 3 2 5 0
1 3 2 5 0
1 3 2 5 0
1 3 2 5 0
1 3 2 5 0
1 3 2 5 0
1 3 2 5 0
1 3 2 5 0
1 3 2 5 0
1 3 2 5 0
1 3 2 5 0
1 3 2 5 0
1 3 2 5 0
1 2 3 5 0
1 2 3 5 0
1 2 3 5 0
1 2 3 5 0
1 2 3 5 0
1 2 3 5 0
1 2 3 5 0
1 2 3 5 0
1 2 3 5 0
1 2 3 5 0
1 2 3 5 0
1 2 3 5 0
1 2 3 5 0
1 2 3 5 0
1 2 3 5 0
1 2 3 5 0
1 2 3 5 0
1 2 3 5 0
1 2 3 5 0
1 2 3 5 0
1 2 3 5 0
1 2 3 5 0
1 2 3 5 0
1 2 3 5 0
1 2 3 5 0
1 2 3 5 0
1 2 3 5 0
1 2 3 1 0
1 2 3 1 0
1 2 3 1 0
1 2 3 1 0
1 2 3 1 0
1 2 3 1 0
1 2 3 1 0
1 2 3 1 0
1 2 3 1 0
1 2 3 1 0
1 2 3 1 0
1 2 3 1 0
1 2 3 1 0
1 2 3 1 0
1 2 3 1 0
1 2 3 1 0
1 2 3 1 0
1 2 3 1 0
1 2 3 1 0
1 2 3 1 0
1 2 3 1 0
1 2 3 1 0
1 2 3 1 0
1 2 3 4 0
1 2 3 4 0
1 2 3 4 0
1 2 3 4 0
1 2 3 4 0
1 2 3 4 0
1 2 3 4 0
1 2 3 4 0
1 2 3 4 0
1 2 3 4 0
1 2 3 4 0
1 2 3 4 0
1 2 3 4 0
1 2 3 4 0
1 2 3 4 0
1 2 3 4 0
1 2 3 4 0
1 2 3 4 0
1 2 3 4 0
1 2 3 4 0
1 2 3 4 0
1 2 3 4 0
1 2 3 4 0
1 2 3 4 0
1 2 3 4 0
1 2 3 4 0
1 2 3 4 0
1 2 3 4 0
1 2 3 4 0
1 2 3 4 0
1 2 3 4 0
1 2 3 4 0
1 2 3 4 0
1 2 3 4 0
1 2 3 4 0
1 2 3 4 0
1 2 3 4 0
1 2 3 4 0
1 2 3 4 0
1 2 3 4 0
1 2 3 4 0
1 2 3 4 0
1 2 3 4 0
1 2 3 4 0
1 2 3 4 0
1 2 3 4 0
1 2 3 4 0
1 2 3 4 0
1 2 3 4 0
1 2 3 4 0
1 2 3 4 0
1 2 3 4 0
1 2 3 4 0
1 2 3 4 0
1 2 3 4 0
1 2 3 4 0
1 2 3 4 0
1 2 3 4 0
1 2 3 4 0
1 2 3 4 0
1 2 3 4 0
1 2 3 4 0
1 2 3 4 0
1 2 3 4 0
1 2 3 4 0
1 2 3 4 0
1 2 3 4 0
1 2 3 4 0
1 2 3 4 0
1 2 3 4 0
1 2 3 4 0
1 2 3 4 0
1 2 3 4 0
1 2 3 4 0
1 2 3 4 0
1 2 3 4 0
1 2 3 4 0
1 2 3 4 0
1 2 3 4 0
1 2 3 4 0
1 2 3 4 0
1 2 3 4 0
1 2 3 4 0
1 2 3 4 0
1 3 2 1 0
1 3 2 1 0
1 3 2 1 0
1 3 2 1 0
1 3 2 1 0
1 3 2 1 0
1 3 2 1 0
1 3 2 1 0
1 3 2 1 0
1 3 2 1 0
1 3 2 1 0
1 3 2 1 0
1 3 2 1 0
1 3 2 1 0
1 3 2 1 0
1 3 2 1 0
1 3 2 1 0
1 3 2 1 0
1 3 2 1 0
1 3 2 1 0
1 3 2 1 0
1 3 2 1 0
1 3 2 1 0
1 3 2 1 0
1 3 2 1 0
1 3 2 1 0
1 3 2 1 0
1 3 2 1 0
1 3 2 1 0
1 3 2 1 0
1 3 2 1 0
1 3 2 1 0
1 3 2 1 0
1 3 2 1 0
1 3 2 1 0
1 3 2 4 0
1 3 2 4 0
1 3 2 4 0
1 3 2 4 0
1 3 2 4 0
1 3 2 4 0
1 3 2 4 0
1 3 2 4 0
1 3 2 4 0
1 3 2 4 0
1 3 2 4 0
1 3 2 4 0
1 3 2 4 0
1 3 2 4 0
1 3 2 4 0
1 3 2 4 0
1 3 2 4 0
1 3 2 4 0
1 3 2 4 0
1 3 2 4 0
1 3 2 4 0
1 3 2 4 0
1 3 2 4 0
1 3 2 4 0
1 3 2 4 0
1 3 2 4 0
1 3 2 4 0
1 3 2 4 0
1 3 2 4 0
1 3 2 4 0
1 3 2 4 0
1 3 2 4 0
1 3 2 4 0
1 3 2 4 0
1 3 2 4 0
1 3 2 4 0
1 3 2 4 0
1 3 2 4 0
1 3 2 4 0
1 3 2 4 0
1 3 2 4 0
1 3 2 4 0
1 3 2 4 0
1 3 2 4 0
1 3 2 4 0
1 3 2 4 0
1 3 2 4 0
1 3 2 4 0
1 3 2 4 0
1 3 2 4 0
1 3 2 4 0
1 3 2 4 0
1 3 2 4 0
1 3 2 4 0
1 3 2 4 0
1 3 2 4 0
1 3 2 4 0
1 3 2 4 0
1 3 2 4 0
1 3 2 4 0
1 3 2 4 0
1 3 2 4 0
1 3 2 4 0
1 3 2 4 0
1 3 2 4 0
1 3 2 4 0
1 3 2 4 0
1 3 2 4 0
1 3 2 4 0
1 3 2 4 0
1 3 2 4 0
1 3 2 4 0
1 3 2 4 0
1 3 2 4 0
1 3 2 4 0
1 3 2 4 0
1 3 2 4 0
1 3 2 4 0
1 3 2 4 0
1 3 2 4 0
1 3 2 4 0
1 3 2 4 0
1 3 2 4 0
1 3 2 4 0
1 3 2 4 0
1 3 2 4 0
1 3 2 4 0
1 3 2 4 0
1 3 2 4 0
1 3 2 4 0
1 3 2 4 0
1 3 2 4 0
1 3 2 4 0
1 3 2 4 0
1 3 2 4 0
1 3 2 4 0
1 3 2 4 0
1 3 2 4 0
1 3 2 4 0
1 3 2 4 0
1 3 2 4 0
1 3 2 4 0
1 3 2 4 0
1 3 2 4 0
1 3 2 4 0
1 3 2 4 0
1 3 2 4 0
1 3 2 4 0
1 3 2 4 0
1 3 2 4 0
1 2 4 3 0
1 2 4 3 0
1 2 4 3 0
1 2 4 3 0
1 2 4 3 0
1 2 4 3 0
1 2 4 3 0
1 2 4 3 0
1 2 4 3 0
1 2 4 3 0
1 2 4 3 0
1 2 4 3 0
1 2 4 3 0
1 2 4 3 0
1 2 4 3 0
1 2 4 3 0
1 2 4 3 0
1 2 4 3 0
1 2 4 3 0
1 2 4 3 0
1 2 4 3 0
1 2 4 3 0
1 2 4 3 0
1 3 4 2 0
1 3 4 2 0
1 3 4 2 0
1 3 4 2 0
1 3 4 2 0
1 3 4 2 0
1 3 4 2 0
1 3 4 2 0
1 3 4 2 0
1 3 4 2 0
1 3 4 2 0
1 3 4 2 0
1 3 4 2 0
1 3 4 2 0
1 3 4 2 0
1 3 4 2 0
1 3 4 2 0
1 3 4 2 0
1 3 4 2 0
1 3 4 2 0
1 3 4 2 0
1 3 4 2 0
1 3 4 2 0
1 3 4 2 0
1 3 4 2 0
1 3 4 2 0
1 3 4 2 0
1 3 4 2 0
1 3 4 2 0
1 3 4 2 0
1 3 4 2 0
1 3 4 2 0
1 3 4 2 0
1 3 4 2 0
1 3 4 2 0
1 3 4 2 0
1 3 4 2 0
1 3 4 2 0
1 3 4 2 0
1 3 4 2 0
1 3 4 2 0
1 3 4 2 0
1 3 4 2 0
1 3 4 2 0
1 3 4 2 0
1 3 4 2 0
1 3 4 2 0
1 3 4 2 0
1 3 4 2 0
1 3 4 2 0
1 3 1 2 0
1 3 1 2 0
1 3 1 2 0
1 3 1 2 0
1 3 1 2 0
1 3 1 2 0
1 3 1 2 0
1 3 1 2 0
1 3 1 2 0
1 3 1 2 0
1 3 1 2 0
1 3 1 2 0
1 3 1 2 0
1 2 1 3 0
1 2 1 3 0
1 2 1 3 0
1 2 1 3 0
1 2 1 3 0
1 2 1 3 0
1 2 1 3 0
1 3 1 4 0
1 3 1 4 0
1 3 1 4 0
1 3 1 4 0
1 3 1 4 0
1 3 1 4 0
1 3 1 4 0
1 3 1 4 0
1 3 1 4 0
1 3 1 4 0
1 3 1 4 0
1 3 1 4 0
1 3 1 4 0
1 3 1 4 0
1 3 1 4 0
1 3 4 5 0
1 3 4 5 0
1 3 4 5 0
1 3 4 5 0
1 3 4 5 0
1 3 4 5 0
1 3 4 5 0
1 3 4 5 0
1 3 4 5 0
1 3 4 5 0
1 3 4 5 0
1 3 4 5 0
1 3 4 5 0
1 3 4 5 0
1 3 4 5 0
1 3 4 5 0
1 3 4 5 0
1 3 4 5 0
1 3 4 5 0
1 3 4 5 0
1 3 4 5 0
1 3 4 5 0
1 3 4 5 0
1 3 4 5 0
1 3 4 5 0
1 3 4 5 0
1 3 4 5 0
1 3 4 5 0
1 3 4 5 0
1 3 4 5 0
1 3 4 5 0
1 3 4 5 0
1 3 4 5 0
1 3 4 5 0
1 3 4 5 0
1 3 4 5 0
1 3 4 5 0
1 2 1 4 0
1 2 1 4 0
1 2 1 4 0
1 2 1 4 0
1 2 1 4 0
1 2 1 4 0
1 2 1 4 0
1 2 1 4 0
1 2 4 5 0
1 2 4 5 0
1 2 4 5 0
1 2 4 5 0
1 2 4 5 0
1 2 4 5 0
1 2 4 5 0
1 2 4 5 0
1 2 4 5 0
1 2 4 5 0
1 2 4 5 0
1 2 4 5 0
1 2 4 5 0
1 2 4 5 0
1 2 4 5 0
1 2 4 1 0
1 2 4 1 0
1 2 4 1 0
1 2 4 1 0
1 2 4 1 0
1 2 4 1 0
1 2 4 1 0
1 2 4 1 0
1 2 4 1 0
1 2 4 1 0
1 2 1 5 0
1 2 1 5 0
1 2 1 5 0
1 2 1 5 0
1 3 1 5 0
1 3 1 5 0
1 3 1 5 0
1 3 1 5 0
1 3 1 5 0
1 3 1 5 0
1 3 1 5 0
1 3 1 5 0
1 3 1 5 0
1 3 1 5 0
1 3 1 5 0
1 3 4 1 0
1 3 4 1 0
1 3 4 1 0
1 3 4 1 0
1 3 4 1 0
1 3 4 1 0
1 3 4 1 0
1 3 4 1 0
1 3 4 1 0
1 3 4 1 0
1 3 4 1 0
1 3 4 1 0
1 3 4 1 0
1 3 4 1 0
1 3 4 1 0
1 3 4 1 0
1 3 4 1 0
1 3 5 4 0
1 3 5 4 0
1 3 5 4 0
1 3 5 4 0
1 3 5 4 0
1 3 5 4 0
1 3 5 4 0
1 3 5 4 0
1 3 5 4 0
1 3 5 4 0
1 3 5 4 0
1 3 5 4 0
1 3 5 4 0
1 3 5 4 0
1 3 5 4 0
1 3 5 4 0
1 3 5 4 0
1 3 5 4 0
1 3 5 4 0
1 3 5 4 0
1 3 5 4 0
1 3 5 4 0
1 3 5 4 0
1 3 5 1 0
1 3 5 1 0
1 3 5 1 0
1 3 5 1 0
1 3 5 1 0
1 3 5 1 0
1 3 5 1 0
1 3 5 1 0
1 3 5 1 0
1 3 5 1 0
1 3 5 1 0
1 3 5 1 0
1 3 5 1 0
1 3 5 1 0
1 3 5 1 0
1 3 5 1 0
1 3 5 1 0
1 3 5 1 0
1 2 5 4 0
1 2 5 4 0
1 2 5 4 0
1 2 5 4 0
1 2 5 4 0
1 2 5 4 0
1 2 5 4 0
1 2 5 4 0
1 2 5 4 0
1 2 5 1 0
1 2 5 1 0
1 2 5 1 0
1 2 5 1 0
1 2 5 1 0
1 2 5 1 0
1 3 5 2 0
1 3 5 2 0
1 3 5 2 0
1 3 5 2 0
1 3 5 2 0
1 3 5 2 0
1 3 5 2 0
1 3 5 2 0
1 3 5 2 0
1 3 5 2 0
1 3 5 2 0
1 3 5 2 0
1 3 5 2 0
1 3 5 2 0
1 3 5 2 0
1 3 5 2 0
1 3 5 2 0
1 3 5 2 0
1 3 5 2 0
1 3 5 2 0
1 3 5 2 0
1 3 5 2 0
1 3 5 2 0
1 2 5 3 0
1 2 5 3 0
1 2 5 3 0
1 2 5 3 0
1 2 5 3 0
1 2 5 3 0
1 2 5 3 0
1 2 5 3 0
1 2 5 3 0
1 2 5 3 0
1 2 5 3 0
0
"heropup" # Candidate 1
"TheSimpliFire" # Candidate 2
"Xander Henderson" # Candidate 3
"Paramanand Singh" # Candidate 4
"Matt Samuel" # Candidate 5
"Mathematics Stack Exchange Moderator Election 2020"
