Ballot file contains 4 candidates and 1871 ballots.
No candidates have withdrawn.
Ballot file contains 1871 non-empty ballots.

Counting votes for Mathematics Stack Exchange Moderator Election 2021 using Meek STV.
4 candidates running for 2 seats.

 R|Paramanand|Parcly Tax|TheSimpliF|Christian |Exhausted |Surplus   |Threshold 
  | Singh    |el        |ire       |Prince    |          |          |          
===============================================================================
 1|717.000000|302.000000|727.000000|125.000000|  0.000000|196.666666|623.666667
  |----------------------------------------------------------------------------
  | Count of first choices. Candidates Paramanand Singh and TheSimpliFire have
  | reached the threshold and are elected.

Winners are Paramanand Singh and TheSimpliFire.


4 2
1 1 2 0
1 1 2 0
1 1 2 0
1 1 2 0
1 1 2 0
1 1 2 0
1 1 2 0
1 1 2 0
1 1 2 0
1 1 2 0
1 1 2 0
1 1 2 0
1 1 2 0
1 1 2 0
1 1 2 0
1 1 2 0
1 1 2 0
1 1 2 0
1 1 2 0
1 1 2 0
1 1 2 0
1 1 2 0
1 1 2 0
1 1 2 0
1 1 2 0
1 1 2 0
1 1 2 0
1 1 2 0
1 1 2 0
1 1 2 0
1 1 2 0
1 1 2 0
1 1 2 0
1 1 2 0
1 1 0
1 1 0
1 1 0
1 1 0
1 1 0
1 1 0
1 1 0
1 1 0
1 1 0
1 1 0
1 1 0
1 1 0
1 1 0
1 1 0
1 1 0
1 1 0
1 1 0
1 1 0
1 1 0
1 1 0
1 1 0
1 1 0
1 1 0
1 1 0
1 1 0
1 1 0
1 1 0
1 1 0
1 1 0
1 1 0
1 1 0
1 1 0
1 1 0
1 1 0
1 1 0
1 1 0
1 1 0
1 1 0
1 1 0
1 1 0
1 1 0
1 1 0
1 1 0
1 1 0
1 1 0
1 1 0
1 1 0
1 1 0
1 1 0
1 1 0
1 1 0
1 1 0
1 1 0
1 1 0
1 1 0
1 1 0
1 1 0
1 1 0
1 1 0
1 1 0
1 1 0
1 1 0
1 1 0
1 1 0
1 1 0
1 1 0
1 1 0
1 1 0
1 1 0
1 1 0
1 1 0
1 1 0
1 1 0
1 1 0
1 1 0
1 1 0
1 1 0
1 1 0
1 1 0
1 1 0
1 1 0
1 1 0
1 1 0
1 1 0
1 1 0
1 1 0
1 1 0
1 1 0
1 1 0
1 1 0
1 1 0
1 1 0
1 1 0
1 1 0
1 1 0
1 1 0
1 1 0
1 1 0
1 1 0
1 1 0
1 1 0
1 1 0
1 1 0
1 1 0
1 1 0
1 1 0
1 1 0
1 1 0
1 1 0
1 1 0
1 1 0
1 1 0
1 1 0
1 1 0
1 1 0
1 1 0
1 1 0
1 1 0
1 1 0
1 1 0
1 1 0
1 1 0
1 1 0
1 1 0
1 1 0
1 1 0
1 1 0
1 1 0
1 1 0
1 1 0
1 1 0
1 1 0
1 1 0
1 1 0
1 1 0
1 1 0
1 1 0
1 1 0
1 1 0
1 1 0
1 1 0
1 1 0
1 1 0
1 1 0
1 1 0
1 1 0
1 1 0
1 1 3 0
1 1 3 0
1 1 3 0
1 1 3 0
1 1 3 0
1 1 3 0
1 1 3 0
1 1 3 0
1 1 3 0
1 1 3 0
1 1 3 0
1 1 3 0
1 1 3 0
1 1 3 0
1 1 3 0
1 1 3 0
1 1 3 0
1 1 3 0
1 1 3 0
1 1 3 0
1 1 3 0
1 1 3 0
1 1 3 0
1 1 3 0
1 1 3 0
1 1 3 0
1 1 3 0
1 1 3 0
1 1 3 0
1 1 3 0
1 1 3 0
1 1 3 0
1 1 3 0
1 1 3 0
1 1 3 0
1 1 3 0
1 1 3 0
1 1 3 0
1 1 3 0
1 1 3 0
1 1 3 0
1 1 3 0
1 1 3 0
1 1 3 0
1 1 3 0
1 1 3 0
1 1 3 0
1 1 3 0
1 1 3 0
1 1 3 0
1 1 3 0
1 1 3 0
1 1 3 0
1 1 3 0
1 1 3 0
1 1 3 0
1 1 3 0
1 1 3 0
1 1 3 0
1 1 3 0
1 1 3 0
1 1 3 0
1 1 3 0
1 1 3 0
1 1 3 0
1 1 3 0
1 1 3 0
1 1 3 0
1 1 3 0
1 1 3 0
1 1 3 0
1 1 3 0
1 1 3 0
1 1 3 0
1 1 3 0
1 1 3 0
1 1 3 0
1 1 3 0
1 1 3 0
1 1 3 0
1 1 3 0
1 1 3 0
1 1 3 0
1 1 3 0
1 1 3 0
1 1 3 0
1 1 3 0
1 1 3 0
1 1 3 0
1 1 3 0
1 1 3 0
1 1 3 0
1 1 2 3 0
1 1 2 3 0
1 1 2 3 0
1 1 2 3 0
1 1 2 3 0
1 1 2 3 0
1 1 2 3 0
1 1 2 3 0
1 1 2 3 0
1 1 2 3 0
1 1 2 3 0
1 1 2 3 0
1 1 2 3 0
1 1 2 3 0
1 1 2 3 0
1 1 2 3 0
1 1 2 3 0
1 1 2 3 0
1 1 2 3 0
1 1 2 3 0
1 1 2 3 0
1 1 2 3 0
1 1 2 3 0
1 1 2 3 0
1 4 0
1 4 0
1 4 0
1 4 0
1 4 0
1 4 0
1 4 0
1 4 0
1 4 0
1 4 0
1 4 0
1 4 0
1 4 0
1 4 0
1 4 0
1 4 0
1 4 0
1 4 0
1 4 0
1 4 0
1 4 0
1 4 0
1 4 0
1 4 0
1 2 0
1 2 0
1 2 0
1 2 0
1 2 0
1 2 0
1 2 0
1 2 0
1 2 0
1 2 0
1 2 0
1 2 0
1 2 0
1 2 0
1 2 0
1 2 0
1 2 0
1 2 0
1 2 0
1 2 0
1 2 0
1 2 0
1 2 0
1 2 0
1 2 0
1 2 0
1 2 0
1 2 0
1 2 0
1 2 0
1 2 0
1 2 0
1 2 0
1 2 0
1 2 0
1 3 0
1 3 0
1 3 0
1 3 0
1 3 0
1 3 0
1 3 0
1 3 0
1 3 0
1 3 0
1 3 0
1 3 0
1 3 0
1 3 0
1 3 0
1 3 0
1 3 0
1 3 0
1 3 0
1 3 0
1 3 0
1 3 0
1 3 0
1 3 0
1 3 0
1 3 0
1 3 0
1 3 0
1 3 0
1 3 0
1 3 0
1 3 0
1 3 0
1 3 0
1 3 0
1 3 0
1 3 0
1 3 0
1 3 0
1 3 0
1 3 0
1 3 0
1 3 0
1 3 0
1 3 0
1 3 0
1 3 0
1 3 0
1 3 0
1 3 0
1 3 0
1 3 0
1 3 0
1 3 0
1 3 0
1 3 0
1 3 0
1 3 0
1 3 0
1 3 0
1 3 0
1 3 0
1 3 0
1 3 0
1 3 0
1 3 0
1 3 0
1 3 0
1 3 0
1 3 0
1 3 0
1 3 0
1 3 0
1 3 0
1 3 0
1 3 0
1 3 0
1 3 0
1 3 0
1 3 0
1 3 0
1 3 0
1 3 0
1 3 0
1 3 0
1 1 2 4 0
1 1 2 4 0
1 1 2 4 0
1 1 2 4 0
1 1 4 0
1 1 4 0
1 1 4 0
1 1 4 0
1 1 4 0
1 1 4 0
1 1 4 0
1 1 4 0
1 1 4 0
1 4 3 0
1 4 3 0
1 4 3 0
1 4 3 0
1 1 3 2 0
1 1 3 2 0
1 1 3 2 0
1 1 3 2 0
1 1 3 2 0
1 1 3 2 0
1 1 3 2 0
1 1 3 2 0
1 1 3 2 0
1 1 3 2 0
1 1 3 2 0
1 1 3 2 0
1 1 3 2 0
1 1 3 2 0
1 1 3 2 0
1 1 3 2 0
1 1 3 2 0
1 1 3 2 0
1 1 3 2 0
1 1 3 2 0
1 1 3 2 0
1 1 3 2 0
1 1 3 2 0
1 1 3 2 0
1 1 3 2 0
1 1 3 2 0
1 1 3 2 0
1 1 3 2 0
1 1 3 2 0
1 1 3 2 0
1 1 3 2 0
1 1 3 2 0
1 1 3 2 0
1 1 3 2 0
1 1 3 2 0
1 1 3 2 0
1 1 3 2 0
1 1 3 2 0
1 1 3 2 0
1 1 3 2 0
1 1 3 2 0
1 1 3 2 0
1 1 3 2 0
1 1 3 2 0
1 1 3 2 0
1 1 3 2 0
1 1 3 2 0
1 1 3 2 0
1 1 3 2 0
1 1 3 2 0
1 1 3 2 0
1 1 3 2 0
1 1 3 2 0
1 1 3 2 0
1 1 3 2 0
1 1 3 2 0
1 1 3 2 0
1 1 3 2 0
1 1 3 2 0
1 1 3 2 0
1 1 3 2 0
1 1 3 2 0
1 1 3 2 0
1 1 3 2 0
1 1 3 2 0
1 1 3 2 0
1 1 3 2 0
1 1 3 2 0
1 1 3 2 0
1 1 3 2 0
1 1 3 2 0
1 1 3 2 0
1 1 3 2 0
1 1 3 2 0
1 1 3 2 0
1 1 3 2 0
1 1 3 2 0
1 1 3 2 0
1 1 3 2 0
1 1 3 2 0
1 1 3 2 0
1 4 2 0
1 4 2 0
1 1 2 3 4 0
1 1 2 3 4 0
1 1 2 3 4 0
1 1 2 3 4 0
1 1 2 3 4 0
1 1 2 3 4 0
1 1 2 3 4 0
1 1 2 3 4 0
1 1 2 3 4 0
1 1 2 3 4 0
1 1 2 3 4 0
1 1 2 3 4 0
1 1 2 3 4 0
1 1 2 3 4 0
1 1 2 3 4 0
1 1 2 3 4 0
1 1 2 3 4 0
1 1 2 3 4 0
1 1 2 3 4 0
1 1 2 3 4 0
1 1 2 3 4 0
1 1 2 3 4 0
1 1 2 3 4 0
1 1 2 3 4 0
1 1 2 3 4 0
1 1 2 3 4 0
1 1 2 3 4 0
1 1 2 3 4 0
1 1 2 3 4 0
1 1 2 3 4 0
1 1 2 3 4 0
1 1 2 3 4 0
1 1 2 3 4 0
1 1 2 3 4 0
1 1 2 3 4 0
1 1 2 3 4 0
1 1 2 3 4 0
1 1 2 3 4 0
1 1 2 3 4 0
1 1 2 3 4 0
1 1 2 3 4 0
1 1 2 3 4 0
1 1 2 3 4 0
1 1 2 3 4 0
1 1 2 3 4 0
1 1 2 3 4 0
1 1 2 3 4 0
1 1 2 3 4 0
1 1 2 3 4 0
1 1 2 3 4 0
1 1 2 3 4 0
1 1 2 3 4 0
1 1 2 3 4 0
1 1 2 3 4 0
1 1 2 3 4 0
1 1 2 3 4 0
1 1 2 3 4 0
1 1 2 3 4 0
1 1 2 3 4 0
1 1 2 3 4 0
1 1 2 3 4 0
1 1 2 3 4 0
1 1 2 3 4 0
1 1 2 3 4 0
1 1 2 3 4 0
1 1 2 3 4 0
1 1 2 3 4 0
1 1 2 3 4 0
1 1 2 3 4 0
1 1 2 3 4 0
1 1 2 3 4 0
1 1 2 3 4 0
1 1 2 3 4 0
1 1 2 3 4 0
1 1 2 3 4 0
1 1 2 3 4 0
1 1 2 3 4 0
1 1 2 3 4 0
1 1 2 3 4 0
1 1 2 3 4 0
1 1 2 3 4 0
1 1 2 3 4 0
1 1 2 3 4 0
1 1 2 3 4 0
1 1 2 3 4 0
1 4 1 0
1 4 1 0
1 4 1 0
1 4 1 0
1 4 1 0
1 4 1 0
1 4 1 0
1 1 3 4 0
1 1 3 4 0
1 1 3 4 0
1 2 3 0
1 2 3 0
1 2 3 0
1 2 3 0
1 2 3 0
1 2 3 0
1 2 3 0
1 2 3 0
1 2 3 0
1 2 3 0
1 2 3 0
1 2 3 0
1 2 3 0
1 2 3 0
1 2 3 0
1 2 3 0
1 2 3 0
1 2 3 0
1 2 3 0
1 2 3 0
1 2 3 0
1 2 3 0
1 2 3 0
1 2 3 0
1 2 3 0
1 2 3 0
1 2 1 0
1 2 1 0
1 2 1 0
1 2 1 0
1 2 1 0
1 2 1 0
1 2 1 0
1 2 1 0
1 2 1 0
1 2 1 0
1 2 1 0
1 2 1 0
1 2 1 0
1 2 1 0
1 2 1 0
1 2 4 0
1 2 4 0
1 1 2 4 3 0
1 1 2 4 3 0
1 1 2 4 3 0
1 1 2 4 3 0
1 1 2 4 3 0
1 1 2 4 3 0
1 1 2 4 3 0
1 1 2 4 3 0
1 1 2 4 3 0
1 1 2 4 3 0
1 1 2 4 3 0
1 1 2 4 3 0
1 1 2 4 3 0
1 1 2 4 3 0
1 1 2 4 3 0
1 1 2 4 3 0
1 1 2 4 3 0
1 1 2 4 3 0
1 1 2 4 3 0
1 1 2 4 3 0
1 1 2 4 3 0
1 1 2 4 3 0
1 1 2 4 3 0
1 1 2 4 3 0
1 1 2 4 3 0
1 1 2 4 3 0
1 1 4 3 0
1 1 4 3 0
1 1 4 3 0
1 3 2 0
1 3 2 0
1 3 2 0
1 3 2 0
1 3 2 0
1 3 2 0
1 3 2 0
1 3 2 0
1 3 2 0
1 3 2 0
1 3 2 0
1 3 2 0
1 3 2 0
1 3 2 0
1 3 2 0
1 3 2 0
1 3 2 0
1 3 2 0
1 3 2 0
1 3 2 0
1 3 2 0
1 3 2 0
1 3 2 0
1 3 2 0
1 3 2 0
1 3 2 0
1 3 2 0
1 3 2 0
1 3 2 0
1 3 2 0
1 3 2 0
1 3 2 0
1 1 4 2 0
1 3 1 0
1 3 1 0
1 3 1 0
1 3 1 0
1 3 1 0
1 3 1 0
1 3 1 0
1 3 1 0
1 3 1 0
1 3 1 0
1 3 1 0
1 3 1 0
1 3 1 0
1 3 1 0
1 3 1 0
1 3 1 0
1 3 1 0
1 3 1 0
1 3 1 0
1 3 1 0
1 3 1 0
1 3 1 0
1 3 1 0
1 3 1 0
1 3 1 0
1 3 1 0
1 3 1 0
1 3 1 0
1 3 1 0
1 3 1 0
1 3 1 0
1 3 1 0
1 3 1 0
1 3 1 0
1 3 1 0
1 3 1 0
1 3 1 0
1 3 1 0
1 3 1 0
1 3 1 0
1 3 1 0
1 3 1 0
1 3 1 0
1 3 1 0
1 3 1 0
1 3 1 0
1 3 1 0
1 3 1 0
1 3 1 0
1 3 1 0
1 3 1 0
1 3 1 0
1 3 1 0
1 3 1 0
1 3 1 0
1 3 1 0
1 3 1 0
1 3 1 0
1 3 1 0
1 3 1 0
1 3 1 0
1 3 1 0
1 3 4 0
1 3 4 0
1 3 4 0
1 3 4 0
1 3 4 0
1 4 3 1 0
1 4 3 1 0
1 1 3 2 4 0
1 1 3 2 4 0
1 1 3 2 4 0
1 1 3 2 4 0
1 1 3 2 4 0
1 1 3 2 4 0
1 1 3 2 4 0
1 1 3 2 4 0
1 1 3 2 4 0
1 1 3 2 4 0
1 1 3 2 4 0
1 1 3 2 4 0
1 1 3 2 4 0
1 1 3 2 4 0
1 1 3 2 4 0
1 1 3 2 4 0
1 1 3 2 4 0
1 1 3 2 4 0
1 1 3 2 4 0
1 1 3 2 4 0
1 1 3 2 4 0
1 1 3 2 4 0
1 1 3 2 4 0
1 1 3 2 4 0
1 1 3 2 4 0
1 1 3 2 4 0
1 1 3 2 4 0
1 1 3 2 4 0
1 1 3 2 4 0
1 1 3 2 4 0
1 1 3 2 4 0
1 1 3 2 4 0
1 1 3 2 4 0
1 1 3 2 4 0
1 1 3 2 4 0
1 1 3 2 4 0
1 1 3 2 4 0
1 1 3 2 4 0
1 1 3 2 4 0
1 1 3 2 4 0
1 1 3 2 4 0
1 1 3 2 4 0
1 1 3 2 4 0
1 1 3 2 4 0
1 1 3 2 4 0
1 1 3 2 4 0
1 1 3 2 4 0
1 1 3 2 4 0
1 1 3 2 4 0
1 1 3 2 4 0
1 1 3 2 4 0
1 1 3 2 4 0
1 1 3 2 4 0
1 1 3 2 4 0
1 1 3 2 4 0
1 1 3 2 4 0
1 1 3 2 4 0
1 1 3 2 4 0
1 1 3 2 4 0
1 1 3 2 4 0
1 1 3 2 4 0
1 1 3 2 4 0
1 1 3 2 4 0
1 1 3 2 4 0
1 1 3 2 4 0
1 1 3 2 4 0
1 1 3 2 4 0
1 1 3 2 4 0
1 1 3 2 4 0
1 1 3 2 4 0
1 1 3 2 4 0
1 1 3 2 4 0
1 1 3 2 4 0
1 1 3 2 4 0
1 1 3 2 4 0
1 1 3 2 4 0
1 1 3 2 4 0
1 1 3 2 4 0
1 1 3 2 4 0
1 1 3 2 4 0
1 1 3 2 4 0
1 1 3 2 4 0
1 1 3 2 4 0
1 1 3 2 4 0
1 1 3 2 4 0
1 1 3 2 4 0
1 1 3 2 4 0
1 1 3 2 4 0
1 1 3 2 4 0
1 1 3 2 4 0
1 1 3 2 4 0
1 1 3 2 4 0
1 1 3 2 4 0
1 1 3 2 4 0
1 1 3 2 4 0
1 1 3 2 4 0
1 1 3 2 4 0
1 1 3 2 4 0
1 1 3 2 4 0
1 1 3 2 4 0
1 1 3 2 4 0
1 1 3 2 4 0
1 1 3 2 4 0
1 1 3 2 4 0
1 1 3 2 4 0
1 1 3 2 4 0
1 1 3 2 4 0
1 1 3 2 4 0
1 1 3 2 4 0
1 1 3 2 4 0
1 1 3 2 4 0
1 1 3 2 4 0
1 1 3 2 4 0
1 1 3 2 4 0
1 1 3 2 4 0
1 1 3 2 4 0
1 1 3 2 4 0
1 4 2 1 0
1 4 2 1 0
1 4 2 3 0
1 4 2 3 0
1 4 2 3 0
1 1 3 4 2 0
1 1 3 4 2 0
1 1 3 4 2 0
1 1 3 4 2 0
1 1 3 4 2 0
1 1 3 4 2 0
1 1 3 4 2 0
1 1 3 4 2 0
1 1 3 4 2 0
1 1 3 4 2 0
1 1 3 4 2 0
1 1 3 4 2 0
1 1 3 4 2 0
1 1 3 4 2 0
1 1 3 4 2 0
1 1 3 4 2 0
1 1 3 4 2 0
1 1 3 4 2 0
1 1 3 4 2 0
1 1 3 4 2 0
1 1 3 4 2 0
1 1 3 4 2 0
1 1 3 4 2 0
1 1 3 4 2 0
1 1 3 4 2 0
1 1 3 4 2 0
1 1 3 4 2 0
1 1 3 4 2 0
1 1 3 4 2 0
1 1 3 4 2 0
1 1 3 4 2 0
1 2 3 4 0
1 2 3 4 0
1 2 3 4 0
1 2 3 4 0
1 2 3 4 0
1 2 3 4 0
1 2 3 1 0
1 2 3 1 0
1 2 3 1 0
1 2 3 1 0
1 2 3 1 0
1 2 3 1 0
1 2 3 1 0
1 2 3 1 0
1 2 3 1 0
1 2 3 1 0
1 2 3 1 0
1 2 3 1 0
1 2 3 1 0
1 2 3 1 0
1 2 3 1 0
1 2 3 1 0
1 2 3 1 0
1 2 3 1 0
1 2 3 1 0
1 2 3 1 0
1 2 3 1 0
1 2 3 1 0
1 2 3 1 0
1 2 3 1 0
1 2 3 1 0
1 2 3 1 0
1 2 3 1 0
1 2 3 1 0
1 2 3 1 0
1 2 3 1 0
1 2 1 4 0
1 2 1 4 0
1 2 1 3 0
1 2 1 3 0
1 2 1 3 0
1 2 1 3 0
1 2 1 3 0
1 2 1 3 0
1 2 1 3 0
1 2 1 3 0
1 2 1 3 0
1 2 1 3 0
1 2 1 3 0
1 2 1 3 0
1 2 1 3 0
1 2 1 3 0
1 2 1 3 0
1 2 1 3 0
1 2 1 3 0
1 2 1 3 0
1 2 1 3 0
1 2 4 3 0
1 2 4 3 0
1 2 4 3 0
1 1 4 3 2 0
1 1 4 3 2 0
1 1 4 3 2 0
1 1 4 3 2 0
1 1 4 3 2 0
1 1 4 3 2 0
1 1 4 3 2 0
1 1 4 3 2 0
1 1 4 3 2 0
1 1 4 3 2 0
1 1 4 3 2 0
1 1 4 3 2 0
1 1 4 3 2 0
1 1 4 3 2 0
1 1 4 3 2 0
1 1 4 3 2 0
1 1 4 3 2 0
1 1 4 3 2 0
1 1 4 3 2 0
1 1 4 3 2 0
1 1 4 3 2 0
1 1 4 3 2 0
1 1 4 3 2 0
1 1 4 3 2 0
1 1 4 3 2 0
1 1 4 3 2 0
1 1 4 3 2 0
1 1 4 3 2 0
1 3 2 4 0
1 3 2 4 0
1 3 2 4 0
1 3 2 4 0
1 3 2 1 0
1 3 2 1 0
1 3 2 1 0
1 3 2 1 0
1 3 2 1 0
1 3 2 1 0
1 3 2 1 0
1 3 2 1 0
1 3 2 1 0
1 3 2 1 0
1 3 2 1 0
1 3 2 1 0
1 3 2 1 0
1 3 2 1 0
1 3 2 1 0
1 3 2 1 0
1 3 2 1 0
1 3 2 1 0
1 3 2 1 0
1 3 2 1 0
1 3 2 1 0
1 3 2 1 0
1 3 2 1 0
1 3 2 1 0
1 3 2 1 0
1 3 2 1 0
1 3 2 1 0
1 3 2 1 0
1 3 2 1 0
1 3 2 1 0
1 3 2 1 0
1 3 2 1 0
1 3 2 1 0
1 3 2 1 0
1 3 2 1 0
1 3 2 1 0
1 3 2 1 0
1 3 2 1 0
1 3 2 1 0
1 3 2 1 0
1 3 2 1 0
1 3 2 1 0
1 3 2 1 0
1 3 2 1 0
1 3 2 1 0
1 3 2 1 0
1 3 2 1 0
1 3 2 1 0
1 3 2 1 0
1 3 2 1 0
1 3 2 1 0
1 3 2 1 0
1 3 2 1 0
1 3 2 1 0
1 3 2 1 0
1 3 2 1 0
1 3 2 1 0
1 3 2 1 0
1 3 2 1 0
1 3 2 1 0
1 3 2 1 0
1 3 2 1 0
1 3 2 1 0
1 3 2 1 0
1 3 2 1 0
1 3 2 1 0
1 3 2 1 0
1 3 2 1 0
1 3 2 1 0
1 3 2 1 0
1 3 2 1 0
1 3 2 1 0
1 3 2 1 0
1 3 2 1 0
1 3 2 1 0
1 3 2 1 0
1 3 2 1 0
1 3 2 1 0
1 3 2 1 0
1 3 2 1 0
1 3 2 1 0
1 3 2 1 0
1 3 2 1 0
1 3 2 1 0
1 3 2 1 0
1 3 2 1 0
1 3 2 1 0
1 3 2 1 0
1 3 2 1 0
1 3 2 1 0
1 3 2 1 0
1 3 2 1 0
1 3 2 1 0
1 3 2 1 0
1 3 2 1 0
1 3 2 1 0
1 3 2 1 0
1 3 2 1 0
1 3 2 1 0
1 3 2 1 0
1 3 2 1 0
1 3 2 1 0
1 3 2 1 0
1 3 2 1 0
1 1 4 2 3 0
1 1 4 2 3 0
1 1 4 2 3 0
1 1 4 2 3 0
1 1 4 2 3 0
1 1 4 2 3 0
1 1 4 2 3 0
1 1 4 2 3 0
1 1 4 2 3 0
1 1 4 2 3 0
1 1 4 2 3 0
1 1 4 2 3 0
1 1 4 2 3 0
1 1 4 2 3 0
1 1 4 2 3 0
1 1 4 2 3 0
1 1 4 2 3 0
1 1 4 2 3 0
1 1 4 2 3 0
1 1 4 2 3 0
1 1 4 2 3 0
1 1 4 2 3 0
1 1 4 2 3 0
1 1 4 2 3 0
1 1 4 2 3 0
1 1 4 2 3 0
1 1 4 2 3 0
1 1 4 2 3 0
1 1 4 2 3 0
1 1 4 2 3 0
1 1 4 2 3 0
1 1 4 2 3 0
1 3 1 2 0
1 3 1 2 0
1 3 1 2 0
1 3 1 2 0
1 3 1 2 0
1 3 1 2 0
1 3 1 2 0
1 3 1 2 0
1 3 1 2 0
1 3 1 2 0
1 3 1 2 0
1 3 1 2 0
1 3 1 2 0
1 3 1 2 0
1 3 1 2 0
1 3 1 2 0
1 3 1 2 0
1 3 1 2 0
1 3 1 2 0
1 3 1 2 0
1 3 1 2 0
1 3 1 2 0
1 3 1 2 0
1 3 1 2 0
1 3 1 2 0
1 3 1 2 0
1 3 1 2 0
1 3 1 2 0
1 3 1 2 0
1 3 1 2 0
1 3 1 2 0
1 3 1 2 0
1 3 1 2 0
1 3 1 2 0
1 3 1 2 0
1 3 1 2 0
1 3 1 2 0
1 3 1 2 0
1 3 1 2 0
1 3 1 2 0
1 3 1 2 0
1 3 1 2 0
1 3 1 2 0
1 3 1 2 0
1 3 1 2 0
1 3 1 2 0
1 3 1 2 0
1 3 1 2 0
1 3 1 2 0
1 3 1 2 0
1 3 1 2 0
1 3 1 2 0
1 3 1 2 0
1 3 1 2 0
1 3 1 2 0
1 3 1 2 0
1 3 1 2 0
1 3 1 2 0
1 3 1 2 0
1 3 1 2 0
1 3 1 2 0
1 3 1 2 0
1 3 1 2 0
1 3 1 2 0
1 3 1 2 0
1 3 1 2 0
1 3 1 2 0
1 3 1 2 0
1 3 1 2 0
1 3 1 2 0
1 3 1 2 0
1 3 1 2 0
1 3 1 2 0
1 3 1 2 0
1 3 1 2 0
1 3 1 4 0
1 3 1 4 0
1 3 1 4 0
1 3 1 4 0
1 3 4 2 0
1 3 4 2 0
1 3 4 1 0
1 4 3 1 2 0
1 4 3 1 2 0
1 4 3 1 2 0
1 4 3 1 2 0
1 4 3 1 2 0
1 4 3 1 2 0
1 4 3 1 2 0
1 4 3 1 2 0
1 4 3 1 2 0
1 4 3 1 2 0
1 4 3 1 2 0
1 4 3 1 2 0
1 4 3 1 2 0
1 4 3 2 1 0
1 4 3 2 1 0
1 4 3 2 1 0
1 4 3 2 1 0
1 4 3 2 1 0
1 4 3 2 1 0
1 4 3 2 1 0
1 4 3 2 1 0
1 4 3 2 1 0
1 4 3 2 1 0
1 4 3 2 1 0
1 4 3 2 1 0
1 4 3 2 1 0
1 4 3 2 1 0
1 4 3 2 1 0
1 4 3 2 1 0
1 4 3 2 1 0
1 4 3 2 1 0
1 4 3 2 1 0
1 4 2 1 3 0
1 4 2 1 3 0
1 4 2 1 3 0
1 4 2 1 3 0
1 4 2 1 3 0
1 4 2 1 3 0
1 4 2 1 3 0
1 4 2 1 3 0
1 4 2 1 3 0
1 4 2 1 3 0
1 4 2 1 3 0
1 4 2 1 3 0
1 4 2 3 1 0
1 4 2 3 1 0
1 4 2 3 1 0
1 4 2 3 1 0
1 4 2 3 1 0
1 4 2 3 1 0
1 4 2 3 1 0
1 4 1 2 3 0
1 4 1 2 3 0
1 4 1 2 3 0
1 4 1 2 3 0
1 4 1 2 3 0
1 4 1 2 3 0
1 4 1 2 3 0
1 4 1 2 3 0
1 4 1 2 3 0
1 4 1 2 3 0
1 4 1 2 3 0
1 4 1 2 3 0
1 4 1 2 3 0
1 4 1 2 3 0
1 4 1 2 3 0
1 4 1 2 3 0
1 4 1 2 3 0
1 4 1 2 3 0
1 4 1 3 2 0
1 4 1 3 2 0
1 4 1 3 2 0
1 4 1 3 2 0
1 4 1 3 2 0
1 4 1 3 2 0
1 4 1 3 2 0
1 4 1 3 2 0
1 4 1 3 2 0
1 4 1 3 2 0
1 4 1 3 2 0
1 4 1 3 2 0
1 2 3 4 1 0
1 2 3 4 1 0
1 2 3 4 1 0
1 2 3 4 1 0
1 2 3 4 1 0
1 2 3 4 1 0
1 2 3 4 1 0
1 2 3 4 1 0
1 2 3 4 1 0
1 2 3 4 1 0
1 2 3 4 1 0
1 2 3 4 1 0
1 2 3 4 1 0
1 2 3 4 1 0
1 2 3 4 1 0
1 2 3 4 1 0
1 2 3 4 1 0
1 2 3 4 1 0
1 2 3 4 1 0
1 2 3 4 1 0
1 2 3 4 1 0
1 2 3 4 1 0
1 2 3 1 4 0
1 2 3 1 4 0
1 2 3 1 4 0
1 2 3 1 4 0
1 2 3 1 4 0
1 2 3 1 4 0
1 2 3 1 4 0
1 2 3 1 4 0
1 2 3 1 4 0
1 2 3 1 4 0
1 2 3 1 4 0
1 2 3 1 4 0
1 2 3 1 4 0
1 2 3 1 4 0
1 2 3 1 4 0
1 2 3 1 4 0
1 2 3 1 4 0
1 2 3 1 4 0
1 2 3 1 4 0
1 2 3 1 4 0
1 2 3 1 4 0
1 2 3 1 4 0
1 2 3 1 4 0
1 2 3 1 4 0
1 2 3 1 4 0
1 2 3 1 4 0
1 2 3 1 4 0
1 2 3 1 4 0
1 2 3 1 4 0
1 2 3 1 4 0
1 2 3 1 4 0
1 2 3 1 4 0
1 2 3 1 4 0
1 2 3 1 4 0
1 2 3 1 4 0
1 2 3 1 4 0
1 2 3 1 4 0
1 2 3 1 4 0
1 2 3 1 4 0
1 2 3 1 4 0
1 2 3 1 4 0
1 2 3 1 4 0
1 2 3 1 4 0
1 2 3 1 4 0
1 2 3 1 4 0
1 2 3 1 4 0
1 2 3 1 4 0
1 2 1 4 3 0
1 2 1 4 3 0
1 2 1 4 3 0
1 2 1 4 3 0
1 2 1 4 3 0
1 2 1 4 3 0
1 2 1 4 3 0
1 2 1 4 3 0
1 2 1 4 3 0
1 2 1 4 3 0
1 2 1 4 3 0
1 2 1 4 3 0
1 2 1 3 4 0
1 2 1 3 4 0
1 2 1 3 4 0
1 2 1 3 4 0
1 2 1 3 4 0
1 2 1 3 4 0
1 2 1 3 4 0
1 2 1 3 4 0
1 2 1 3 4 0
1 2 1 3 4 0
1 2 1 3 4 0
1 2 1 3 4 0
1 2 1 3 4 0
1 2 1 3 4 0
1 2 1 3 4 0
1 2 1 3 4 0
1 2 1 3 4 0
1 2 1 3 4 0
1 2 1 3 4 0
1 2 1 3 4 0
1 2 1 3 4 0
1 2 1 3 4 0
1 2 1 3 4 0
1 2 1 3 4 0
1 2 1 3 4 0
1 2 1 3 4 0
1 2 1 3 4 0
1 2 1 3 4 0
1 2 1 3 4 0
1 2 1 3 4 0
1 2 1 3 4 0
1 2 1 3 4 0
1 2 1 3 4 0
1 2 1 3 4 0
1 2 1 3 4 0
1 2 1 3 4 0
1 2 1 3 4 0
1 2 1 3 4 0
1 2 1 3 4 0
1 2 1 3 4 0
1 2 1 3 4 0
1 2 1 3 4 0
1 2 1 3 4 0
1 2 1 3 4 0
1 2 1 3 4 0
1 2 1 3 4 0
1 2 1 3 4 0
1 2 1 3 4 0
1 2 1 3 4 0
1 2 1 3 4 0
1 2 1 3 4 0
1 2 1 3 4 0
1 2 4 1 3 0
1 2 4 1 3 0
1 2 4 1 3 0
1 2 4 1 3 0
1 2 4 1 3 0
1 2 4 1 3 0
1 2 4 1 3 0
1 2 4 1 3 0
1 2 4 1 3 0
1 2 4 1 3 0
1 2 4 1 3 0
1 2 4 1 3 0
1 2 4 3 1 0
1 2 4 3 1 0
1 2 4 3 1 0
1 2 4 3 1 0
1 2 4 3 1 0
1 2 4 3 1 0
1 2 4 3 1 0
1 2 4 3 1 0
1 2 4 3 1 0
1 2 4 3 1 0
1 2 4 3 1 0
1 2 4 3 1 0
1 2 4 3 1 0
1 2 4 3 1 0
1 2 4 3 1 0
1 2 4 3 1 0
1 2 4 3 1 0
1 2 4 3 1 0
1 2 4 3 1 0
1 3 2 4 1 0
1 3 2 4 1 0
1 3 2 4 1 0
1 3 2 4 1 0
1 3 2 4 1 0
1 3 2 4 1 0
1 3 2 4 1 0
1 3 2 4 1 0
1 3 2 4 1 0
1 3 2 4 1 0
1 3 2 4 1 0
1 3 2 4 1 0
1 3 2 4 1 0
1 3 2 4 1 0
1 3 2 4 1 0
1 3 2 4 1 0
1 3 2 4 1 0
1 3 2 4 1 0
1 3 2 4 1 0
1 3 2 1 4 0
1 3 2 1 4 0
1 3 2 1 4 0
1 3 2 1 4 0
1 3 2 1 4 0
1 3 2 1 4 0
1 3 2 1 4 0
1 3 2 1 4 0
1 3 2 1 4 0
1 3 2 1 4 0
1 3 2 1 4 0
1 3 2 1 4 0
1 3 2 1 4 0
1 3 2 1 4 0
1 3 2 1 4 0
1 3 2 1 4 0
1 3 2 1 4 0
1 3 2 1 4 0
1 3 2 1 4 0
1 3 2 1 4 0
1 3 2 1 4 0
1 3 2 1 4 0
1 3 2 1 4 0
1 3 2 1 4 0
1 3 2 1 4 0
1 3 2 1 4 0
1 3 2 1 4 0
1 3 2 1 4 0
1 3 2 1 4 0
1 3 2 1 4 0
1 3 2 1 4 0
1 3 2 1 4 0
1 3 2 1 4 0
1 3 2 1 4 0
1 3 2 1 4 0
1 3 2 1 4 0
1 3 2 1 4 0
1 3 2 1 4 0
1 3 2 1 4 0
1 3 2 1 4 0
1 3 2 1 4 0
1 3 2 1 4 0
1 3 2 1 4 0
1 3 2 1 4 0
1 3 2 1 4 0
1 3 2 1 4 0
1 3 2 1 4 0
1 3 2 1 4 0
1 3 2 1 4 0
1 3 2 1 4 0
1 3 2 1 4 0
1 3 2 1 4 0
1 3 2 1 4 0
1 3 2 1 4 0
1 3 2 1 4 0
1 3 2 1 4 0
1 3 2 1 4 0
1 3 2 1 4 0
1 3 2 1 4 0
1 3 2 1 4 0
1 3 2 1 4 0
1 3 2 1 4 0
1 3 2 1 4 0
1 3 2 1 4 0
1 3 2 1 4 0
1 3 2 1 4 0
1 3 2 1 4 0
1 3 2 1 4 0
1 3 2 1 4 0
1 3 2 1 4 0
1 3 2 1 4 0
1 3 2 1 4 0
1 3 2 1 4 0
1 3 2 1 4 0
1 3 2 1 4 0
1 3 2 1 4 0
1 3 2 1 4 0
1 3 2 1 4 0
1 3 2 1 4 0
1 3 2 1 4 0
1 3 2 1 4 0
1 3 2 1 4 0
1 3 2 1 4 0
1 3 2 1 4 0
1 3 2 1 4 0
1 3 2 1 4 0
1 3 2 1 4 0
1 3 2 1 4 0
1 3 2 1 4 0
1 3 2 1 4 0
1 3 2 1 4 0
1 3 2 1 4 0
1 3 2 1 4 0
1 3 2 1 4 0
1 3 2 1 4 0
1 3 2 1 4 0
1 3 2 1 4 0
1 3 2 1 4 0
1 3 2 1 4 0
1 3 2 1 4 0
1 3 2 1 4 0
1 3 2 1 4 0
1 3 2 1 4 0
1 3 2 1 4 0
1 3 2 1 4 0
1 3 2 1 4 0
1 3 2 1 4 0
1 3 2 1 4 0
1 3 2 1 4 0
1 3 2 1 4 0
1 3 2 1 4 0
1 3 2 1 4 0
1 3 2 1 4 0
1 3 2 1 4 0
1 3 2 1 4 0
1 3 2 1 4 0
1 3 2 1 4 0
1 3 2 1 4 0
1 3 2 1 4 0
1 3 2 1 4 0
1 3 2 1 4 0
1 3 2 1 4 0
1 3 2 1 4 0
1 3 2 1 4 0
1 3 2 1 4 0
1 3 2 1 4 0
1 3 2 1 4 0
1 3 2 1 4 0
1 3 2 1 4 0
1 3 2 1 4 0
1 3 2 1 4 0
1 3 2 1 4 0
1 3 2 1 4 0
1 3 2 1 4 0
1 3 2 1 4 0
1 3 2 1 4 0
1 3 2 1 4 0
1 3 2 1 4 0
1 3 2 1 4 0
1 3 2 1 4 0
1 3 2 1 4 0
1 3 2 1 4 0
1 3 2 1 4 0
1 3 2 1 4 0
1 3 2 1 4 0
1 3 2 1 4 0
1 3 2 1 4 0
1 3 2 1 4 0
1 3 2 1 4 0
1 3 2 1 4 0
1 3 2 1 4 0
1 3 2 1 4 0
1 3 2 1 4 0
1 3 2 1 4 0
1 3 2 1 4 0
1 3 2 1 4 0
1 3 2 1 4 0
1 3 2 1 4 0
1 3 2 1 4 0
1 3 2 1 4 0
1 3 2 1 4 0
1 3 2 1 4 0
1 3 1 2 4 0
1 3 1 2 4 0
1 3 1 2 4 0
1 3 1 2 4 0
1 3 1 2 4 0
1 3 1 2 4 0
1 3 1 2 4 0
1 3 1 2 4 0
1 3 1 2 4 0
1 3 1 2 4 0
1 3 1 2 4 0
1 3 1 2 4 0
1 3 1 2 4 0
1 3 1 2 4 0
1 3 1 2 4 0
1 3 1 2 4 0
1 3 1 2 4 0
1 3 1 2 4 0
1 3 1 2 4 0
1 3 1 2 4 0
1 3 1 2 4 0
1 3 1 2 4 0
1 3 1 2 4 0
1 3 1 2 4 0
1 3 1 2 4 0
1 3 1 2 4 0
1 3 1 2 4 0
1 3 1 2 4 0
1 3 1 2 4 0
1 3 1 2 4 0
1 3 1 2 4 0
1 3 1 2 4 0
1 3 1 2 4 0
1 3 1 2 4 0
1 3 1 2 4 0
1 3 1 2 4 0
1 3 1 2 4 0
1 3 1 2 4 0
1 3 1 2 4 0
1 3 1 2 4 0
1 3 1 2 4 0
1 3 1 2 4 0
1 3 1 2 4 0
1 3 1 2 4 0
1 3 1 2 4 0
1 3 1 2 4 0
1 3 1 2 4 0
1 3 1 2 4 0
1 3 1 2 4 0
1 3 1 2 4 0
1 3 1 2 4 0
1 3 1 2 4 0
1 3 1 2 4 0
1 3 1 2 4 0
1 3 1 2 4 0
1 3 1 2 4 0
1 3 1 2 4 0
1 3 1 2 4 0
1 3 1 2 4 0
1 3 1 2 4 0
1 3 1 2 4 0
1 3 1 2 4 0
1 3 1 2 4 0
1 3 1 2 4 0
1 3 1 2 4 0
1 3 1 2 4 0
1 3 1 2 4 0
1 3 1 2 4 0
1 3 1 2 4 0
1 3 1 2 4 0
1 3 1 2 4 0
1 3 1 2 4 0
1 3 1 2 4 0
1 3 1 2 4 0
1 3 1 2 4 0
1 3 1 2 4 0
1 3 1 2 4 0
1 3 1 2 4 0
1 3 1 2 4 0
1 3 1 2 4 0
1 3 1 2 4 0
1 3 1 2 4 0
1 3 1 2 4 0
1 3 1 2 4 0
1 3 1 2 4 0
1 3 1 2 4 0
1 3 1 2 4 0
1 3 1 2 4 0
1 3 1 2 4 0
1 3 1 2 4 0
1 3 1 2 4 0
1 3 1 2 4 0
1 3 1 2 4 0
1 3 1 2 4 0
1 3 1 2 4 0
1 3 1 2 4 0
1 3 1 2 4 0
1 3 1 2 4 0
1 3 1 2 4 0
1 3 1 2 4 0
1 3 1 2 4 0
1 3 1 2 4 0
1 3 1 2 4 0
1 3 1 2 4 0
1 3 1 2 4 0
1 3 1 2 4 0
1 3 1 4 2 0
1 3 1 4 2 0
1 3 1 4 2 0
1 3 1 4 2 0
1 3 1 4 2 0
1 3 1 4 2 0
1 3 1 4 2 0
1 3 1 4 2 0
1 3 1 4 2 0
1 3 1 4 2 0
1 3 1 4 2 0
1 3 1 4 2 0
1 3 1 4 2 0
1 3 1 4 2 0
1 3 1 4 2 0
1 3 1 4 2 0
1 3 1 4 2 0
1 3 1 4 2 0
1 3 1 4 2 0
1 3 1 4 2 0
1 3 1 4 2 0
1 3 1 4 2 0
1 3 1 4 2 0
1 3 1 4 2 0
1 3 1 4 2 0
1 3 1 4 2 0
1 3 1 4 2 0
1 3 1 4 2 0
1 3 1 4 2 0
1 3 4 2 1 0
1 3 4 2 1 0
1 3 4 2 1 0
1 3 4 2 1 0
1 3 4 2 1 0
1 3 4 2 1 0
1 3 4 2 1 0
1 3 4 2 1 0
1 3 4 2 1 0
1 3 4 2 1 0
1 3 4 2 1 0
1 3 4 2 1 0
1 3 4 2 1 0
1 3 4 2 1 0
1 3 4 2 1 0
1 3 4 2 1 0
1 3 4 2 1 0
1 3 4 2 1 0
1 3 4 1 2 0
1 3 4 1 2 0
1 3 4 1 2 0
1 3 4 1 2 0
1 3 4 1 2 0
1 3 4 1 2 0
1 3 4 1 2 0
1 3 4 1 2 0
1 3 4 1 2 0
1 3 4 1 2 0
1 3 4 1 2 0
1 3 4 1 2 0
1 3 4 1 2 0
1 3 4 1 2 0
1 3 4 1 2 0
1 3 4 1 2 0
1 3 4 1 2 0
1 3 4 1 2 0
1 3 4 1 2 0
0
"Paramanand Singh" # Candidate 1
"Parcly Taxel" # Candidate 2
"TheSimpliFire" # Candidate 3
"Christian Prince" # Candidate 4
"Mathematics Stack Exchange Moderator Election 2021"
